#E[GeV] xs[pb] err_up[%] err_down[%]
50 0.15
100 0.33
200 0.69
500 1.8
1000 3.6
2000 7.0
5000 17.0
10000 31.0
20000 55.0
50000 110.0
100000 180.0
200000 270.0
500000 460.0
1000000 660.0
2000000 920.0
5000000 1400.0
10000000 1900.0
20000000 2500.0
50000000 3700.0
100000000 4800.0
200000000 6200.0
500000000 8700.0
1000000000 11000.0
2000000000 14000.0
5000000000 19000.0
10000000000 24000.0
20000000000 30000.0
50000000000 39000.0
100000000000 48000.0
200000000000 59000.0
500000000000 75000.0